Finding root with tolerance of 0.0001
Searching in vicinity of guess:         -1 
# Energy is -0.49997596650505
# r, ODE solution, Real Solution, ODE/Real
0 0 0 NaN
0.125 0.110283688383341 0.110312112823074 0.999742327120692
0.25 0.194650823673457 0.194700195767851 0.999746419903693
0.375 0.257669996337936 0.257733479546615 0.999753686603732
0.5 0.303194310039766 0.303265329856317 0.999765816235624
0.625 0.334462755430992 0.334538392824369 0.999773905192949
0.75 0.354198898287389 0.354274914555761 0.999785431411458
0.875 0.364679607001956 0.364754267218695 0.999795313657855
1 0.367804688863486 0.367879441171442 0.999796802159646
1.125 0.365159447001696 0.365234025778143 0.999795805507746
1.25 0.358058653602544 0.358130996075238 0.999797999967926
1.375 0.347582252208606 0.347654444231526 0.999792345462232
1.5 0.334623078877178 0.334695240222645 0.999784396857814
1.625 0.31990886037376 0.319981472206815 0.999773074882884
1.75 0.304031384885213 0.304104401038279 0.999759897742957
1.875 0.287466548323975 0.287540562834241 0.999742594542014
2 0.270595381081917 0.270670566473225 0.999722225462902
2.125 0.253718314969122 0.253795057566779 0.99969761981028
2.25 0.237070076667725 0.237148255264195 0.99967033872384
2.375 0.220828920487822 0.220909411875326 0.999635636223825
2.5 0.205130298172864 0.205212496559747 0.999599447459287
2.625 0.190069831083996 0.19015436221491 0.999555460469436
2.75 0.175715456556012 0.175801618318446 0.999509892097363
2.875 0.162108859238487 0.16219640107336 0.999460272642958
3 0.149272119442925 0.149361205103592 0.999403555557783
3.125 0.137212207741322 0.137302917573148 0.999339345197979
3.25 0.125923536190148 0.126016175453097 0.999264862128889
3.375 0.115391107255906 0.115486149301873 0.999177026452595
3.5 0.105592799758748 0.105690841978115 0.999072367884183
3.625 0.0965011930911403 0.0966029778442886 0.998946360087238
3.75 0.0880846899798007 0.0881915469600341 0.998788353488324
3.875 0.0803104299960855 0.0804230592605865 0.998599540162529
4 0.0731434062267317 0.0732625555549367 0.998373666775578
4.125 0.0665468519093662 0.0666744151761842 0.998086773367551
4.25 0.0604865894095752 0.0606229941132468 0.997749951059546
4.375 0.0549257130120032 0.0550731223106487 0.997323389478191
4.5 0.0498309611735254 0.0499904844220904 0.996808927730764
4.625 0.0451690031391613 0.045341904540676 0.99618671947581
4.75 0.0409072428409019 0.041095552214823 0.995417767525383
4.875 0.0370155145108118 0.0372210843169423 0.994477060249507
5 0.0334647420308332 0.0336897349954273 0.993321616669745
5.125 0.0302277506140088 0.0304743639519195 0.991907514844289
5.25 0.0272780992227572 0.0275494715957023 0.990149634195257
5.375 0.0245924665584829 0.0248911881927412 0.987998900175228
5.5 0.0221485837506415 0.0224772429115524 0.98537813724734
5.625 0.0199243127392778 0.0202869176400885 0.982126170804077
5.75 0.0179008965345659 0.0183009895799306 0.978138174243679
5.875 0.0160595198543794 0.0165016658928374 0.97320597560699
6 0.0143844868692048 0.0148725130599982 0.967186030442565
6.125 0.0128579272063558 0.0133983830988702 0.959662603425634
6.25 0.0114669433044779 0.0120653383514232 0.950403790634296
6.375 0.0101979867922658 0.0108605761982414 0.938991321097409
6.5 0.00903838350512462 0.00977235475435422 0.924893102258433
6.625 0.00797638479670147 0.00878992035555382 0.907446765619631
6.75 0.00700117753655948 0.00790343744034043 0.88583955897776
6.875 0.00610284853463519 0.0071039212657025 0.859081668613015
7 0.00527229622812527 0.00638317375888161 0.825967837831352
7.125 0.00450107571792672 0.00573372269713787 0.785018033776475
7.25 0.00378053784560305 0.00514876431910848 0.734261195753791
7.375 0.00310063257073787 0.00462210940105737 0.670826304982862
7.5 0.00245819749127936 0.00414813277610875 0.59260337697901
7.625 0.00184335744259346 0.00372172623186604 0.495296356516051
7.75 0.00124927499509991 0.00333825468946158 0.374229982824168
7.875 0.000671256365272475 0.00299351554322203 0.224236806383834
8 9.97374745250428E-05 0.00268370102322009 0.0371641526615996
